omega,Re_G_variance,Im_G_variance
6.283199999999999896e-01,2.995967245121959452e-12,2.460881649033649536e-12
6.284145399671146048e-01,2.993806436046927307e-12,2.459042572868269797e-12
6.285090941591550129e-01,2.991664463344635364e-12,2.457222807448806153e-12
6.286036625782616127e-01,2.989541195280943176e-12,2.455422201390953990e-12
6.286982452265750254e-01,2.987436500947111745e-12,2.453640604293307674e-12
6.287928421062362050e-01,2.985350250171638503e-12,2.451877866812902172e-12
6.288874532193865496e-01,2.983282313672013054e-12,2.450133840670050523e-12
6.289820785681676796e-01,2.981232563086379850e-12,2.448408378533794272e-12
6.290767181547215481e-01,2.979200870693776257e-12,2.446701334108446831e-12
6.291713719811903305e-01,2.977187109518108513e-12,2.445012562100661761e-12
6.292660400497168682e-01,2.975191153695251092e-12,2.443341918224584472e-12
6.293607223624438918e-01,2.973212877906200586e-12,2.441689259163681148e-12
6.294554189215146867e-01,2.971252157600806256e-12,2.440054442538116818e-12
6.295501297290728715e-01,2.969308869125431703e-12,2.438437327023950136e-12
6.296448547872622870e-01,2.967382889647198377e-12,2.436837772190514040e-12
6.297395940982272178e-01,2.965474096875277404e-12,2.435255638565568745e-12
6.298343476641121708e-01,2.963582369451687998e-12,2.433690787678728318e-12
6.299291154870619858e-01,2.961707586839831242e-12,2.432143081947945088e-12
6.300238975692218357e-01,2.959849629034207447e-12,2.430612384701490109e-12
6.301186939127372266e-01,2.958008377022553639e-12,2.429098560270237923e-12
6.302135045197541086e-01,2.956183712328511235e-12,2.427601473836572406e-12
6.303083293924184316e-01,2.954375517401969663e-12,2.426120991548425008e-12
6.304031685328768120e-01,2.952583675245645205e-12,2.424656980379238485e-12
6.304980219432760880e-01,2.950808069769462463e-12,2.423209308323084186e-12
6.305928896257632088e-01,2.949048585477030284e-12,2.421777844130547080e-12
6.306877715824857900e-01,2.947305107605384398e-12,2.420362457520121697e-12
6.307826678155915578e-01,2.945577522121601947e-12,2.418963019065515231e-12
6.308775783272285720e-01,2.943865715814699320e-12,2.417579400223461894e-12
6.309725031195452249e-01,2.942169575875605343e-12,2.416211473253668553e-12
6.310674421946903534e-01,2.940488990572574447e-12,2.414859111370783721e-12
6.311623955548127940e-01,2.938823848557504846e-12,2.413522188583535163e-12
6.312573632020621606e-01,2.937174039386449205e-12,2.412200579712006581e-12
6.313523451385881780e-01,2.935539453218959132e-12,2.410894160534216199e-12
6.314473413665406820e-01,2.933919980755666559e-12,2.409602807501659932e-12
6.315423518880701748e-01,2.932315513627520285e-12,2.408326397988387263e-12
6.316373767053272692e-01,2.930725943976640071e-12,2.407064810232909175e-12
6.317324158204630224e-01,2.929151164643549457e-12,2.405817923172617022e-12
6.318274692356286026e-01,2.927591069211659738e-12,2.404585616633581714e-12
6.319225369529759551e-01,2.926045551683759149e-12,2.403367771208141887e-12
6.320176189746568030e-01,2.924514506989683647e-12,2.402164268299423427e-12
6.321127153028235357e-01,2.922997830603471640e-12,2.400974990095940420e-12
6.322078259396287647e-01,2.921495418528814411e-12,2.399799819573156619e-12
6.323029508872254345e-01,2.920007167604690870e-12,2.398638640478963332e-12
6.323980901477668226e-01,2.918532975253420782e-12,2.397491337351454114e-12
6.324932437234064286e-01,2.917072739418743754e-12,2.396357795477635612e-12
6.325884116162983073e-01,2.915626358717286992e-12,2.395237900932785283e-12
6.326835938285966243e-01,2.914193732495066016e-12,2.394131540496318080e-12
6.327787903624559895e-01,2.912774760576028625e-12,2.393038601755663455e-12
6.328740012200312348e-01,2.911369343449054253e-12,2.391958973006134904e-12
6.329692264034776361e-01,2.909977382312667774e-12,2.390892543333371358e-12
6.330644659149506914e-01,2.908598778729190357e-12,2.389839202459720694e-12
6.331597197566063429e-01,2.907233435190413874e-12,2.388798840923323533e-12
6.332549879306005325e-01,2.905881254511480268e-12,2.387771350015749960e-12
6.333502704390900906e-01,2.904542140254475981e-12,2.386756621639358527e-12
6.334455672842316254e-01,2.903215996489367867e-12,2.385754548491764399e-12
6.335408784681824113e-01,2.901902727874447319e-12,2.384765023928649344e-12
6.336362039930998336e-01,2.900602239724865087e-12,2.383787942073180203e-12
6.337315438611418328e-01,2.899314437856612414e-12,2.382823197711114472e-12
6.338268980744664605e-01,2.898039228796924201e-12,2.381870686309219609e-12
6.339222666352322122e-01,2.896776519415735709e-12,2.380930304017645523e-12
6.340176495455978056e-01,2.895526217372358882e-12,2.380001947736560680e-12
6.341130468077224025e-01,2.894288230735256741e-12,2.379085514936582015e-12
6.342084584237653866e-01,2.893062468239660465e-12,2.378180903907474779e-12
6.343038843958865858e-01,2.891848839131882124e-12,2.377288013493069427e-12
6.343993247262460500e-01,2.890647253179011437e-12,2.376406743200892132e-12
6.344947794170041622e-01,2.889457620737596799e-12,2.375536993317059680e-12
6.345902484703217494e-01,2.888279852763298418e-12,2.374678664641481921e-12
6.346857318883597499e-01,2.887113860655492663e-12,2.373831658699134513e-12
6.347812296732795456e-01,2.885959556349625079e-12,2.372995877673221283e-12
6.348767418272429630e-01,2.884816852468406326e-12,2.372171224386534382e-12
6.349722683524119393e-01,2.883685662013301270e-12,2.371357602277523003e-12
6.350678092509489669e-01,2.882565898527640281e-12,2.370554915424493663e-12
6.351633645250165383e-01,2.881457476177109393e-12,2.369763068500389916e-12
6.352589341767777009e-01,2.880360309512204882e-12,2.368981966898523003e-12
6.353545182083958354e-01,2.879274313831464502e-12,2.368211516564562903e-12
6.354501166220346553e-01,2.878199404637861998e-12,2.367451624068942490e-12
6.355457294198580964e-01,2.877135498131578553e-12,2.366702196567141550e-12
6.356413566040305385e-01,2.876082511031483636e-12,2.365963141914792521e-12
6.357369981767164724e-01,2.875040360549788059e-12,2.365234368478577229e-12
6.358326541400809440e-01,2.874008964413799473e-12,2.364515785326104018e-12
6.359283244962892212e-01,2.872988240699487809e-12,2.363807301978245509e-12
6.360240092475070162e-01,2.871978108206175483e-12,2.363108828679060806e-12
6.361197083959001519e-01,2.870978486090144848e-12,2.362420276196239786e-12
6.362154219436348956e-01,2.869989293968856489e-12,2.361741555909669988e-12
6.363111498928778476e-01,2.869010452072089825e-12,2.361072579772010636e-12
6.364068922457959410e-01,2.868041881028658949e-12,2.360413260317295638e-12
6.365026490045565533e-01,2.867083501958845619e-12,2.359763510642917367e-12
6.365984201713270618e-01,2.866135236531512685e-12,2.359123244450262312e-12
6.366942057482755102e-01,2.865197006751037229e-12,2.358492375920172332e-12
6.367900057375699419e-01,2.864268735202465409e-12,2.357870819897523467e-12
6.368858201413790665e-01,2.863350344920712910e-12,2.357258491740096649e-12
6.369816489618717048e-01,2.862441759424270131e-12,2.356655307375316310e-12
6.370774922012170105e-01,2.861542902654981983e-12,2.356061183271755872e-12
6.371733498615845814e-01,2.860653698976589819e-12,2.355476036437322229e-12
6.372692219451443485e-01,2.859774073384501290e-12,2.354899784412135855e-12
6.373651084540662426e-01,2.858903951081832409e-12,2.354332345330650936e-12
6.374610093905209718e-01,2.858043257970850177e-12,2.353773637856004779e-12
6.375569247566793551e-01,2.857191920193937426e-12,2.353223581114439104e-12
6.376528545547125448e-01,2.856349864554530004e-12,2.352682094837334393e-12
6.377487987867920260e-01,2.855517018034830901e-12,2.352149099263725360e-12
6.378447574550893950e-01,2.854693308298765542e-12,2.351624515143990144e-12
6.379407305617772472e-01,2.853878663397407346e-12,2.351108263754207628e-12
6.380367181090276230e-01,2.853073011662202356e-12,2.350600266894561643e-12
6.381327200990134507e-01,2.852276282043615289e-12,2.350100446919689370e-12
6.382287365339079921e-01,2.851488403863644607e-12,2.349608726582891884e-12
6.383247674158846197e-01,2.850709306861447911e-12,2.349125029263335793e-12
6.384208127471170391e-01,2.849938921227233726e-12,2.348649278778403599e-12
6.385168725297792891e-01,2.849177177495587921e-12,2.348181399477955529e-12
6.386129467660459635e-01,2.848424006731674565e-12,2.347721316179079612e-12
6.387090354580918783e-01,2.847679340284055137e-12,2.347268954207207964e-12
6.388051386080918492e-01,2.846943110216774072e-12,2.346824239442545531e-12
6.389012562182214694e-01,2.846215248523657946e-12,2.346387098169859263e-12
6.389973882906565539e-01,2.845495688098971535e-12,2.345957457151559193e-12
6.390935348275729178e-01,2.844784361916715707e-12,2.345535243695444855e-12
6.391896958311471533e-01,2.844081203462679039e-12,2.345120385557729666e-12
6.392858713035558527e-01,2.843386146698151735e-12,2.344712811016144227e-12
6.393820612469762743e-01,2.842699125859894529e-12,2.344312448751777928e-12
6.394782656635855655e-01,2.842020075716478647e-12,2.343919227964720258e-12
6.395744845555615399e-01,2.841348931356601078e-12,2.343533078314389495e-12
6.396707179250822328e-01,2.840685628164679917e-12,2.343153929886462043e-12
6.397669657743259020e-01,2.840030102158987467e-12,2.342781713303220666e-12
6.398632281054713600e-01,2.839382289592939890e-12,2.342416359616156316e-12
6.399595049206976416e-01,2.838742127000935860e-12,2.342057800299522747e-12
6.400557962221838926e-01,2.838109551629935621e-12,2.341705967350094981e-12
6.401521020121100358e-01,2.837484500772049019e-12,2.341360793137385399e-12
6.402484222926558832e-01,2.836866912301359162e-12,2.341022210551217932e-12
6.403447570660018018e-01,2.836256724392390201e-12,2.340690152873236779e-12
6.404411063343286026e-01,2.835653875612678053e-12,2.340364553860789311e-12
6.405374700998169857e-01,2.835058304910147414e-12,2.340045347714038366e-12
6.406338483646484283e-01,2.834469951612184414e-12,2.339732469059016763e-12
6.407302411310046297e-01,2.833888755401364030e-12,2.339425852973165695e-12
6.408266484010674002e-01,2.833314656337922506e-12,2.339125434931280012e-12
6.409230701770192162e-01,2.832747594893904399e-12,2.338831150884140458e-12
6.410195064610424431e-01,2.832187511788783858e-12,2.338542937199187701e-12
6.411159572553203345e-01,2.831634348233868629e-12,2.338260730643673776e-12
6.412124225620360329e-01,2.831088045697884415e-12,2.337984468473937008e-12
6.413089023833730140e-01,2.830548546011256994e-12,2.337714088254121419e-12
6.414053967215154195e-01,2.830015791563729215e-12,2.337449528056887585e-12
6.415019055786473912e-01,2.829489724766545373e-12,2.337190726377651614e-12
6.415984289569536259e-01,2.828970288658691797e-12,2.336937622070083234e-12
6.416949668586190425e-01,2.828457426450857401e-12,2.336690154440741230e-12
6.417915192858287821e-01,2.827951081839797447e-12,2.336448263189904186e-12
6.418880862407685406e-01,2.827451198774148947e-12,2.336211888405459119e-12
6.419846677256240142e-01,2.826957721628720200e-12,2.335980970631046540e-12
6.420812637425817870e-01,2.826470594958728485e-12,2.335755450748611716e-12
6.421778742938282214e-01,2.825989763884076751e-12,2.335535270094300426e-12
6.422744993815501235e-01,2.825515173691963608e-12,2.335320370356956869e-12
6.423711390079349659e-01,2.825046770104490801e-12,2.335110693715238552e-12
6.424677931751699989e-01,2.824584499068005990e-12,2.334906182582397136e-12
6.425644618854434720e-01,2.824128307055640833e-12,2.334706779886569480e-12
6.426611451409433018e-01,2.823678140681771305e-12,2.334512428900415185e-12
6.427578429438581820e-01,2.823233946876309265e-12,2.334323073293450314e-12
6.428545552963769172e-01,2.822795673140524615e-12,2.334138657141971533e-12
6.429512822006887562e-01,2.822363267056694411e-12,2.333959124843586308e-12
6.430480236589831700e-01,2.821936676637246189e-12,2.333784421227878599e-12
6.431447796734500733e-01,2.821515850149252690e-12,2.333614491460364224e-12
6.432415502462796031e-01,2.821100736300307592e-12,2.333449281169068482e-12
6.433383353796623405e-01,2.820691283981483570e-12,2.333288736221317840e-12
6.434351350757890886e-01,2.820287442488185483e-12,2.333132802998730231e-12
6.435319493368509836e-01,2.819889161402998902e-12,2.332981428115744238e-12
6.436287781650397166e-01,2.819496390630068186e-12,2.332834558631027147e-12
6.437256215625468680e-01,2.819109080406168506e-12,2.332692142025701679e-12
6.438224795315649063e-01,2.818727181218578683e-12,2.332554126017323657e-12
6.439193520742860777e-01,2.818350643932681071e-12,2.332420458755409646e-12
6.440162391929032948e-01,2.817979419651607018e-12,2.332291088752010733e-12
6.441131408896096922e-01,2.817613459762307354e-12,2.332165964838803744e-12
6.442100571665987374e-01,2.817252716167956213e-12,2.332045036261952867e-12
6.443069880260643423e-01,2.816897140774934269e-12,2.331928252554445954e-12
6.444039334702006405e-01,2.816546686074666281e-12,2.331815563662763826e-12
6.445008935012019879e-01,2.816201304595729048e-12,2.331706919835133742e-12
6.445978681212634065e-01,2.815860949322606350e-12,2.331602271679341977e-12
6.446948573325798071e-01,2.815525573485567695e-12,2.331501570172863551e-12
6.447918611373467668e-01,2.815195130571840515e-12,2.331404766593541019e-12
6.448888795377600847e-01,2.814869574511406725e-12,2.331311812614498604e-12
6.449859125360158929e-01,2.814548859397102248e-12,2.331222660224243734e-12
6.450829601343106567e-01,2.814232939658794678e-12,2.331137261726246587e-12
6.451800223348410634e-01,2.813921769865036437e-12,2.331055569770307123e-12
6.452770991398043554e-01,2.813615305188220179e-12,2.330977537447495459e-12
6.453741905513979971e-01,2.813313500763931039e-12,2.330903117966631361e-12
6.454712965718196749e-01,2.813016312144474658e-12,2.330832265024693532e-12
6.455684172032675194e-01,2.812723695228590259e-12,2.330764932674003820e-12
6.456655524479399944e-01,2.812435606144641270e-12,2.330701075168252060e-12
6.457627023080358963e-01,2.812152001192034139e-12,2.330640647174003499e-12
6.458598667857543552e-01,2.811872837120090480e-12,2.330583603627330379e-12
6.459570458832947226e-01,2.811598070825089348e-12,2.330529899865878105e-12
6.460542396028569057e-01,2.811327659536056528e-12,2.330479491469628944e-12
6.461514479466407002e-01,2.811061560767823650e-12,2.330432334392980305e-12
6.462486709168469012e-01,2.810799732309010243e-12,2.330388384879677619e-12
6.463459085156760819e-01,2.810542132163479700e-12,2.330347599478384156e-12
6.464431607453293704e-01,2.810288718631411867e-12,2.330309935063557638e-12
6.465404276080081170e-01,2.810039450285663367e-12,2.330275348861625987e-12
6.466377091059141158e-01,2.809794286006305621e-12,2.330243798334174717e-12
6.467350052412496053e-01,2.809553184840691981e-12,2.330215241304765678e-12
6.468323160162168239e-01,2.809316106154326104e-12,2.330189635900397468e-12
6.469296414330184541e-01,2.809083009572361136e-12,2.330166940503562481e-12
6.470269814938577335e-01,2.808853855107185458e-12,2.330147113905566937e-12
6.471243362009380107e-01,2.808628602751059252e-12,2.330130115105013844e-12
6.472217055564630783e-01,2.808407212964237905e-12,2.330115903424063888e-12
6.473190895626369512e-01,2.808189646418798856e-12,2.330104438486997394e-12
6.474164882216640882e-01,2.807975864079726301e-12,2.330095680267635850e-12
6.475139015357491701e-01,2.807765827030194325e-12,2.330089588935521046e-12
6.476113295070972109e-01,2.807559496715445439e-12,2.330086125025152273e-12
6.477087721379137797e-01,2.807356834849465786e-12,2.330085249382802806e-12
6.478062294304045565e-01,2.807157803356559448e-12,2.330086923070970850e-12
6.479037013867754435e-01,2.806962364347817018e-12,2.330091107489971862e-12
6.480011880092330090e-01,2.806770480341720791e-12,2.330097764345954772e-12
6.480986892999839322e-01,2.806582113915100798e-12,2.330106855587145659e-12
6.481962052612353364e-01,2.806397228028371080e-12,2.330118343472497287e-12
6.482937358951944562e-01,2.806215785816011859e-12,2.330132190555609564e-12
6.483912812040691920e-01,2.806037750702551334e-12,2.330148359615690660e-12
6.484888411900674443e-01,2.805863086344184414e-12,2.330166813837442537e-12
6.485864158553976688e-01,2.805691756547160937e-12,2.330187516535487424e-12
6.486840052022686542e-01,2.805523725534866045e-12,2.330210431366036386e-12
6.487816092328893003e-01,2.805358957633752477e-12,2.330235522347908925e-12
6.488792279494691728e-01,2.805197417284740953e-12,2.330262753581672040e-12
6.489768613542178377e-01,2.805039069554345095e-12,2.330292089641398296e-12
6.490745094493454159e-01,2.804883879332527969e-12,2.330323495256742512e-12
6.491721722370623615e-01,2.804731812029779065e-12,2.330356935450491231e-12
6.492698497195792395e-01,2.804582833065549130e-12,2.330392375533121829e-12
6.493675418991071702e-01,2.804436908274768649e-12,2.330429781086774679e-12
6.494652487778576067e-01,2.804294003628730120e-12,2.330469117922744223e-12
6.495629703580420022e-01,2.804154085246507433e-12,2.330510352144904100e-12
6.496607066418728094e-01,2.804017119708481958e-12,2.330553450154873790e-12
6.497584576315621474e-01,2.803883073661060071e-12,2.330598378545967842e-12
6.498562233293226909e-01,2.803751913886208836e-12,2.330645104240782909e-12
6.499540037373675583e-01,2.803623607580110852e-12,2.330693594348072881e-12
6.500517988579102013e-01,2.803498122074113587e-12,2.330743816284459953e-12
6.501496086931642937e-01,2.803375424939112863e-12,2.330795737753139570e-12
6.502474332453437311e-01,2.803255483962130883e-12,2.330849326643136452e-12
6.503452725166630755e-01,2.803138267041574484e-12,2.330904551129840561e-12
6.504431265093369996e-01,2.803023742489121328e-12,2.330961379674910572e-12
6.505409952255805095e-01,2.802911878704244122e-12,2.331019780946725994e-12
6.506388786676090552e-01,2.802802644348308304e-12,2.331079723846776175e-12
6.507367768376381978e-01,2.802696008297929640e-12,2.331141177636706837e-12
6.508346897378840534e-01,2.802591939528648723e-12,2.331204111657484995e-12
6.509326173705630714e-01,2.802490407474879336e-12,2.331268495631254444e-12
6.510305597378919229e-01,2.802391381553473833e-12,2.331334299491748790e-12
6.511285168420875014e-01,2.802294831453983557e-12,2.331401493426595600e-12
6.512264886853674772e-01,2.802200727115268372e-12,2.331470047765991546e-12
6.513244752699492990e-01,2.802109038713730344e-12,2.331539933258105478e-12
6.514224765980511922e-01,2.802019736523782342e-12,2.331611120745863667e-12
6.515204926718914935e-01,2.801932791080324004e-12,2.331683581362891033e-12
6.516185234936887616e-01,2.801848173178597948e-12,2.331757286506966243e-12
6.517165690656622212e-01,2.801765853746284953e-12,2.331832207771090263e-12
6.518146293900312083e-01,2.801685803913065482e-12,2.331908316985811914e-12
6.519127044690153916e-01,2.801607995068556257e-12,2.331985586266856591e-12
6.520107943048348842e-01,2.801532398711193890e-12,2.332063987930309150e-12
6.521088988997100211e-01,2.801458986692010019e-12,2.332143494481964363e-12
6.522070182558615814e-01,2.801387730866082117e-12,2.332224078717948512e-12
6.523051523755104553e-01,2.801318603394378883e-12,2.332305713639901871e-12
6.524033012608783100e-01,2.801251576685570839e-12,2.332388372492027754e-12
6.525014649141865908e-01,2.801186623244933749e-12,2.332472028723962285e-12
6.525996433376574091e-01,2.801123715836827816e-12,2.332556656043722034e-12
6.526978365335133203e-01,2.801062827403292689e-12,2.332642228364684891e-12
6.527960445039768800e-01,2.801003930982645702e-12,2.332728719768461449e-12
6.528942672512711987e-01,2.800947000011319591e-12,2.332816104685026509e-12
6.529925047776196090e-01,2.800892007882457842e-12,2.332904357654240645e-12
6.530907570852458877e-01,2.800838928433561487e-12,2.332993453527183869e-12
6.531890241763741445e-01,2.800787735423809106e-12,2.333083367232966222e-12
6.532873060532287113e-01,2.800738402986858643e-12,2.333174074101959910e-12
6.533856027180343640e-01,2.800690905398497301e-12,2.333265549537221193e-12
6.534839141730161005e-01,2.800645217123000816e-12,2.333357769242342697e-12
6.535822404203993630e-01,2.800601312731753906e-12,2.333450709083648675e-12
6.536805814624098154e-01,2.800559167100574049e-12,2.333544345159073147e-12
6.537789373012736771e-01,2.800518755200601996e-12,2.333638653792845826e-12
6.538773079392171672e-01,2.800480052260788645e-12,2.333733611508980331e-12
